time (s),x (km),y (km),z (km),vx (km/s),vy (km/s),vz (km/s)
0.0,6993.0,0.0,0.0,0.0,4.691903811215644,5.919709344536909
11.66870197734938,6992.445093185078,54.746979143940784,69.07349704161662,-0.09510902841841058,4.691531500448706,5.919239605255203
23.33740395469876,6990.780461070125,109.48526975300923,138.13603188043805,-0.190202917428782,4.690414627766636,5.917830462630219
35.00610593204814,6988.006368630267,164.2061846836414,207.17664406906343,-0.2852665300761558,4.688553372015789,5.9154821423099
46.67480790939752,6984.123257443013,218.9010395746611,276.18437667059146,-0.38028473431131243,4.685948031240472,5.912195020332574
58.3435098867469,6979.131745616694,273.56115423788856,345.1482780131322,-0.4752424054425637,4.682599022633525,5.907969623064607
70.01221186409629,6973.032627690327,328.17785404807654,414.0574034434697,-0.5701244285863035,4.678506882467146,5.9028066271131205
81.68091384144566,6965.826874504864,382.7424713319043,482.9008170795361,-0.6649157011158251,4.673672266003976,5.896706859213815
93.34961581879504,6957.515633045906,437.2463467558289,551.6675935614448,-0.7596011351080328,4.6680959473884585,5.889671296093897
105.01831779614443,6948.100226257852,491.68083071255177,620.3468198007755,-0.854165659787602,4.661778819518492,5.881701064310142
116.6870197734938,6937.58215282958,546.0372847058754,688.9275967278282,-0.9485942239681725,4.654721893897406,5.872797440062136
128.35572175084317,6925.963086951628,600.3070827337073,757.3990410365404,-1.042871798490134,4.646926300466279,5.862961848980721
140.02442372819257,6913.244878044968,654.4816126690116,825.7502869268149,-1.1369833786546253,4.638393287416641,5.852195865891671
151.69312570554195,6899.42955046141,708.5522776384461,893.970487843925,-1.230913986653273,4.629124220983585,5.840501214554674
163.36182768289132,6884.519303155658,762.5104973984722,962.0488182147353,-1.3246486739932815,4.619120585219332,5.827879767377637
175.03052966024072,6868.516509329123,816.3477097087169,1029.9744751804521,-1.4181725239174525,4.608383981747292,5.814333545106393
186.6992316375901,6851.423716045509,870.0553717023448,1097.7366803256027,-1.5114706538187113,4.596916129496665,5.7998647164898465
198.36793361493946,6833.243643818267,923.6249612532151,1165.3246814029587,-1.6045282176487081,4.5847188644176375,5.78447559792064
210.03663559228886,6813.979186169984,977.047978339621,1232.7277540541463,-1.6973304083201266,4.571794139177215,5.768168653051392
221.70533756963823,6793.633409163775,1030.3159464043458,1299.9352035256106,-1.789862460102223,4.558144022835758,5.750946492386593
233.3740395469876,6772.20955090676,1083.4204137108457,1366.9363663796914,-1.8821096510092243,4.543770700504284,5.732811872850218
245.042741524337,6749.7110210257215,1136.3529546953157,1433.7206122005077,-1.9740573051811674,4.528676472982594,5.71376769732916
256.71144350168635,6726.1414001150215,1189.1051713144225,1500.2773452943711,-2.0656907952567556,4.512863756378287,5.693817014192547
268.3801454790358,6701.504439156886,1241.6686943884868,1566.5960063844632,-2.1569955447378493,4.496335081706742,5.672963016787045
280.04884745638515,6675.804058914141,1294.035184939872,1632.6660742994575,-2.2479570303451464,4.479093094472144,5.651209042908242
291.7175494337345,6649.044349295519,1346.1963355263933,1698.4770676558674,-2.3385607843647005,4.461140554229617,5.628558574248202
303.3862514110839,6621.229568693641,1398.143871569495,1764.0185465337863,-2.428792396984827,4.442480334128567,5.605015235819302
315.05495338843326,6592.3641432957875,1449.8695526769907,1829.280114145771,-2.5186375186230134,4.4231154204373055,5.580582795354456
326.72365536578263,6562.4526663675715,1501.3651739601517,1894.251418498594,-2.6080818622424515,4.403048912049038,5.555265162683831
338.39235734313206,6531.499897509651,1552.622567344923,1958.9221540475862,-2.6971112056577766,4.3822840199693305,5.529066389088194
350.06105932048143,6499.5107618876045,1603.633602877041,2023.282063343285,-2.7857113938296076,4.360824066785126,5.501990666628969
361.7297612978308,6466.490349435082,1654.3901900208675,2087.3209386701565,-2.873868341147553,4.3386724861154295,5.474042327455176
373.3984632751802,6432.443914030406,1704.884278951689,2151.02862367707,-2.9615680337012193,4.315832822043741,5.445225843087345
385.06716525252955,6397.376872646726,1755.1078618412964,2214.395014999295,-3.0487965315388883,4.2923087285323644,5.415545823678555
396.7358672298789,6361.294804475916,1805.052974136622,2277.4100638717446,-3.1355399709134613,4.2681039688186955,5.385007017252737
408.4045692072283,6324.203450026313,1854.7116958312258,2340.0637777331845,-3.2217845665152796,4.243222414793586,5.353614308920364
420.0732711845777,6286.108710194487,1904.0761527294405,2402.3462218211926,-3.3075166136914924,4.217668046361914,5.321372720071698
431.7419731619271,6247.016645311224,1953.1385177029165,2464.2475207575226,-3.3927224906514906,4.191444950785484,5.2882874075477275
443.41067513927646,6206.933474161803,2001.8910119394363,2525.7578601237155,-3.477388660658175,4.164557322008354,5.254363662788948
455.07937711662584,6165.865572980841,2050.3259061837316,2586.8674880266212,-3.5615016742045698,4.137009459964739,5.219606910962157
466.7480790939752,6123.819474421785,2098.4355219701274,2647.5667166536073,-3.645048171175476,4.108805769869613,5.1840227100654035
478.4167810713246,6080.801866501311,2146.2122328468067,2707.8459238172004,-3.7280148829937825,4.079950761492129,5.147616750011286
490.085483048674,6036.819591518728,2193.6484655915096,2767.69555448891,-3.810388634751094,4.050449048411999,5.110394851688727
501.7541850260234,5991.87964495064,2240.736701418432,2827.1061223219635,-3.8921563473222713,4.0203053472589785,5.0723629660034515
513.4228870033727,5945.989174321021,2287.4694771761833,2886.0682111627475,-3.9733050394636122,3.989524476935577,5.033527172897282
525.0915889807221,5899.155478046911,2333.839386536551,2944.572476550656,-4.053821829894221,3.958111357823159,4.993893680346493
536.7602909580716,5851.386004259913,2379.83908117392,3002.609647206148,-4.133693939360315,3.9260710109715604,4.953468823339361
548.4289929354209,5802.688349603706,2425.461271935125,3060.1705265067353,-4.212908692682045,3.8934085572723878,4.912259062833124
560.0976949127703,5753.070258007799,2470.6987299995894,3117.245993950712,-4.2914535207825715,3.860129216616136,4.870270984690533
571.7663968901196,5702.539619437673,2515.544288029505,3173.8270066083187,-4.369315962698976,3.8262383070332895,4.827511298596191
583.435098867469,5651.104468621605,2559.9908413099142,3229.90460056017,-4.44648366757474,3.791741243819559,4.78398683695287
595.1038008448184,5598.772983754334,2604.0313488784923,3285.4698923226865,-4.522944396633434,3.7566435386454144,4.739704553758034
606.7725028221678,5545.553485177803,2647.6588346448343,3340.5140802602805,-4.598686025133294,3.7209507986500827,4.694671523460734
618.4412047995172,5491.454434039219,2690.8663884991065,3395.028445984126,-4.673696544302376,3.684668725520159,4.648894939799115
630.1099067768665,5436.484430926637,2733.6471674098248,3449.004355737214,-4.747964063253958,3.647803114553017,4.602382114618731
641.778608754216,5380.65221448232,2775.994396510648,3502.4332617655414,-4.821476810881888,3.6103598537051815,4.555140476671887
653.4473107315653,5323.966659994088,2817.901370175955,3555.3067036751495,-4.894223137735561,3.572344922625833,4.50717757039823
665.1160127089147,5266.436777964927,2859.361453085075,3607.616309774854,-4.966191517874227,3.533764391675626,4.458501054686805
676.7847146862641,5208.071712661061,2900.368081274973,3659.353798404399,-5.0373705507003335,3.4946244209309874,4.4091187016197875
688.4534166636134,5148.880740638778,2940.914763181242,3710.510979247865,-5.107748962771584,3.4549312591740935,4.359038395198156
700.1221186409629,5088.873269250212,2980.995080667219,3761.0797546320887,-5.1773156095914645,3.4146912428686864,4.308268130049494
711.7908206183122,5028.058835128391,3020.602690041068,3811.0521208099008,-5.246059477377879,3.373910795121941,4.25681601011819
723.4595225956616,4966.447102651744,3059.7313230606846,3860.420169228005,-5.313969684809722,3.3325964246325293,4.2046902473382275
735.1282245730109,4904.047862388369,3098.37478792622,3909.176087779226,-5.381035484750972,3.2907547246251205,4.151899160288855
746.7969265503604,4840.871029520332,3136.5269702601167,3957.312162039011,-5.447246265952153,3.2483923717714713,4.098451172833344
758.4656285277098,4776.926642248225,3174.181834074468,4004.8207764859308,-5.512591554728829,3.2055161250983124,4.044354812741084
770.1343305050591,4712.224860176274,3211.3334227255555,4051.6944157060093,-5.577061016616874,3.162132824882229,3.989618710293268
781.8030324824085,4646.7759626782945,3247.9758598554167,4097.925665580684,-5.64064445800427,3.118249391531737,3.9342515968724228
793.4717344597578,4580.590347244695,3284.1033503203084,4143.507214458233,-5.703331827739194,3.073872824456727,3.878262303536006
805.1404364371073,4513.678527810916,3319.710181105878,4188.431854308441,-5.765113218714081,3.029010200925528,3.821659759574375
816.8091384144566,4446.051133067478,3354.790722228959,4232.692481860375,-5.825978869425497,2.983668674909739,3.764452991053328
828.477840391806,4377.718904751988,3389.339427625789,4276.282099723039,-5.885919165509517,2.9378554759170723,3.706651119341523
840.1465423691554,4308.692695923396,3423.3508360265496,4319.19381748877,-5.9449246412523875,2.891577907812415,3.6482633596230207
851.8152443465048,4238.983469218716,3456.819571816095,4361.420852819206,-6.002985981076296,2.8448433476272683,3.5892990193951766
863.4839463238542,4168.602295092611,3489.7403458806984,4402.956532513613,-6.060094020999913,2.797659244357854,3.529767496952227
875.1526483012035,4097.56035004005,3522.1079564407296,4443.794293559466,-6.116239750073589,2.7500331177520345,3.4696782798547603
886.8213502785529,4025.8689148023864,3553.917289869095,4483.927684165057,-6.171414311788917,2.701972557085292,3.409040943385391
898.4900522559024,3953.539372557123,3585.1633214953454,4523.350364774037,-6.225609005462498,2.653485219925976,3.3478651489908877
910.1587542332517,3880.583207091691,3615.8411163953124,4562.056109061678,-6.278815287593673,2.604578830890027,3.2861606427110255
921.8274562106011,3807.0120009615416,3645.9458301661452,4600.038804912733,-6.331024773196011,2.555261180385416,3.223937253594464
933.4961581879504,3732.837433632848,3675.4727096866504,4637.292455380743,-6.382229237102404,2.5055401233464956,3.1612048921018934
945.1648601652998,3658.0712796101307,3704.417093862795,4673.811179628629,-6.432420615243509,2.4554235779584923,3.097973548496747
956.8335621426492,3582.7254065491516,3732.7744143582677,4709.589213850431,-6.481591005899398,2.4049195243723904,3.0342532912237874
968.5022641199986,3506.8117733552785,3760.540196310012,4744.620912174087,-6.529732670924255,2.3540360034103456,2.9700542652757442
980.170966097348,3430.342428267858,3787.7100590285604,4778.900747545031,-6.57683803694382,2.3027811152620092,2.9053866905484846
991.8396680746973,3353.3295069306146,3814.279716683144,4812.42331259059,-6.6228996965256055,2.2511630181717868,2.840260860184747
1003.5083700520468,3275.7852304486755,3840.2449789714065,4845.183320464953,-6.667910409321527,2.1991899271174455,2.774687138906958
1015.1770720293961,3197.7219034323643,3865.6017517736605,4877.175605674634,-6.711863103182905,2.1468701124801792,2.708675961339271
1026.8457740067454,3119.151912028172,3890.346037791566,4908.395124884287,-6.754750875247632,2.094211898706415,2.6422378303191874
1038.5144759840948,3040.0877219371782,3914.473937171172,4938.836957702785,-6.796566992999384,2.0412236629615594,2.5753833151990073
1050.1831779614442,2960.5418764213177,3937.9816481101666,4968.496307449383,-6.837304895298683,1.9879138337759619,2.5081230501374603
1061.8518799387937,2880.5269942977366,3960.865467449318,4997.368501899928,-6.876958193385727,1.9342908896832651,2.4404677323817294
1073.520581916143,2800.055767921637,3983.121791247956,5025.448994012936,-6.915520671854812,1.8803633578514323,2.372428120540241
1085.1892838934923,2719.1409611579415,4004.7471153434512,5052.733362635484,-6.952986289600208,1.826139812706669,2.304015032846483
1096.8579858708417,2637.795407341988,4025.7380358946134,5079.2173131887985,-6.989349180733445,1.7716288745504056,2.2352393454140715
1108.5266878481912,2556.03200722986,4046.0912499088618,5104.89667833339,-7.024603655471722,1.7168392081697545,2.1661119904835866
1120.1953898255406,2473.8637269383116,4065.8035557532094,5129.767418613746,-7.058744200997548,1.661779521441414,2.0966439546611335
1131.86409180289,2391.303595875038,4084.8718536488627,5153.825623082363,-7.091765482289278,1.606458563929548,2.0268462771493105
1143.5327937802392,2308.3647046592487,4103.2931461494645,5177.067509903143,-7.123662342922627,1.5508851254776117,1.9567300479705334
1155.2014957575886,2225.060203033173,4121.064538602855,5199.489426933985,-7.1544298058429305,1.495068034794561,1.886306406183276
1166.870197734938,2141.403297764674,4138.183239596302,5221.08785228853,-7.184063074108137,1.4390161580355691,1.8155865380913796
1178.5388997122875,2057.4072505413756,4154.6465613851515,5241.859394876978,-7.212557531602405,1.3827383973775316,1.7445816754467893
1190.2076016896367,1973.0853758566448,4170.451920304808,5261.800794925885,-7.239908743720229,1.3262436895896026,1.673303093646018
1201.8763036669861,1888.4510388877372,4185.596837166029,5280.9089244769,-7.26611245802103,1.269541004598968,1.6017621099206025
1213.5450056443356,1803.517653366512,4200.078937633441,5299.180787864322,-7.291164604854105,1.2126393440521446,1.5299700815219164
1225.213707621685,1718.2986794429871,4213.895952587247,5316.6135221714785,-7.315061297953917,1.1555477398719918,1.4579384039005696
1236.8824095990344,1632.8076215421868,4227.045718468079,5333.204397665804,-7.337798835005595,1.0982752528107407,1.3856785088807877
1248.5511115763836,1547.0580262144508,4239.526177604932,5348.950818212606,-7.359373698180666,1.0408309709991732,1.3132018628299298
1260.219813553733,1461.0634799798215,4251.335378526158,5363.850321667426,-7.379782554642885,0.9832240084923587,1.2405199648236656
1271.8885155310825,1374.837607166529,4262.471476253471,5377.900580246997,-7.39902225702419,0.9254635038119754,1.1676443448068432
1283.557217508432,1288.3940677442797,4272.932732578914,5391.099400878674,-7.417089843870669,0.8675586184856937,1.0945865617506478
1295.2259194857813,1201.7465551523521,4282.717516324776,5403.44472552838,-7.4339825400585715,0.80951853558363,1.0213582018060683
1306.8946214631305,1114.9087941231135,4291.824303586418,5414.93463150697,-7.44969775718027,0.7513524582522858,0.9479708764541871
1318.56332344048,1027.8945385011793,4300.251677957963,5425.567331754979,-7.464233093900189,0.6930696082461306,0.8744362206534988
1330.2320254178294,940.7175690585906,4307.998330740862,5435.341175105773,-7.477586336280656,0.6346792244570773,0.8007658909845707
1341.9007273951788,853.3916913063645,4315.063061135267,5444.254646526993,-7.48975545807766,0.5761905614421002,0.7269715637923597
1353.5694293725282,765.9307333027854,4321.444776414227,5452.30636734035,-7.500738621006518,0.5176128879492433,0.6530649333264948
1365.2381313498774,678.3485434587528,4327.142492080671,5459.495095419673,-7.510534174977424,0.4589554854422298,0.5790577098798011
1376.9068333272269,590.6589883405571,4332.155332007175,5465.819725367256,-7.519140658300899,0.4002276466239332,0.5049616179253811
1388.5755353045763,502.8759504704548,4336.482528558486,5471.279288668449,-7.52655679786312,0.3414386739589541,0.43078839425257237
1400.2442372819257,415.0133261253384,4340.123422696799,5475.8729538244825,-7.53278150927116,0.2825978781955098,0.3565497861020354
1411.912939259275,327.0850231339526,4343.077464069805,5479.600026463552,-7.537813896968143,0.22371457688693455,0.28225754930035163
1423.5816412366244,239.10495867280974,4345.344211081455,5482.459949430108,-7.541653254318315,0.1647980929129021,0.2079234463942703
1435.2503432139738,151.08705706148373,4346.923330945493,5484.45230285239,-7.544299063662088,0.10585775300082131,0.1335592447851742
1446.9190451913232,63.045247557244146,4347.814599721728,5485.576804188194,-7.545750996341047,0.046902886247383445,0.059176714863736664
1458.5877471686726,-25.006537850304994,4348.017902335056,5485.83330824887,-7.546008912692988,-0.01205717735929395,-0.015212371854669038
1470.2564491460219,-113.0543666443966,4347.533232577237,5485.221807201574,-7.545072862016986,-0.07101310841680203,-0.08959624459365004
1481.9251511233713,-201.08430798568935,4346.360693091458,5483.742430549775,-7.5429430825085655,-0.12995557958459134,-0.16396313517823258
1493.5938531007207,-289.0824349159084,4344.500495339664,5481.3954450920455,-7.5396200011650105,-0.1888752670588933,-0.23830127989574992
1505.2625550780701,-377.0348265602448,4341.952959552679,5478.181254859137,-7.535104233660858,-0.2477628520462182,-0.3125989213549339
1516.9312570554196,-464.9275703280543,4338.718514663171,5474.100401029388,-7.529396584193638,-0.3066090222351204,-0.3868443103428206
1528.5999590327688,-552.7467641117004,4334.797698221424,5469.153561822468,-7.52249804529991,-0.36540447326613157,-0.4610257076793446
1540.2686610101182,-640.4785184829568,4330.1911562939895,5463.341552371497,-7.514409797641689,-0.4241399101994699,-0.5351313860691271
1551.9373629874676,-728.1089588867985,4324.899643345219,5456.665324573582,-7.505133209763293,-0.4828060489804126,-0.6091496319503158
1563.606064964817,-815.62422783221,4318.924022101709,5449.125966918795,-7.494669837818704,-0.5413936179020882,-0.6830687473401694
1575.2747669421665,-903.0104870796117,4312.2652633996995,5440.724704297622,-7.48302142526953,-0.5998933590654211,-0.7568770516770496
1586.9434689195157,-990.2539198245526,4304.924446015454,5431.4628977869725,-7.470189902553639,-0.6582960298359974,-0.8305628836585278
1598.612170896865,-1077.3407328774472,4296.902756478648,5421.342044414726,-7.456177386724552,-0.7165924042977093,-0.9041146030754281
1610.2808728742145,-1164.257158838877,4288.201488868837,5410.363776902935,-7.440986181061686,-0.7747732747028538,-0.977520592641397
1621.949574851564,-1250.9894582701859,4278.822044594999,5398.529863389687,-7.4246187746515595,-0.832829452918519,-1.0507692598177876
1633.6182768289132,-1337.52392185903,4268.765932158248,5385.842207129716,-7.407077841940037,-0.8907517718690251,-1.1238490386335684
1645.2869788062626,-1423.8468725795244,4258.0347668977165,5372.302846173789,-7.388366242255732,-0.9485310869741927,-1.1967483914999657
1656.955680783612,-1509.9446678466677,4246.630270719699,5357.913953026969,-7.36848701930468,-1.0061582775832274,-1.2694558110195757
1668.6243827609615,-1595.8037016646927,4234.554271810085,5342.677834285792,-7.347443400636376,-1.063624248403991,-1.3419598217896558
1680.2930847383109,-1681.4104067690398,4221.808704330136,5326.596930254443,-7.3252387970813215,-1.1209199309274627,-1.4142489821993482
1691.96178671566,-1766.7512567615631,4208.395608095676,5309.673814539985,-7.30187680216018,-1.178036284847134,-1.48631188622051
1703.6304886930095,-1851.812768238751,4194.317128239751,5291.911193626748,-7.277361191464669,-1.234964299473202,-1.5581371651919804
1715.299190670359,-1936.5815029124487,4179.575514858814,5273.311906429923,-7.251695922010341,-1.2916949951412195,-1.629713489596856
1726.9678926477084,-2021.044069722972,4164.173122642512,5253.878923828464,-7.224885131561345,-1.348219424615137,-1.7010295708326886
1738.6365946250578,-2105.1871269441203,4148.112410487125,5233.6153481773845,-7.196933137927355,-1.4045286744844203,-1.7720741629742087
1750.305296602407,-2188.9973842798354,4131.39594109275,5212.524412799511,-7.167844438232766,-1.460613866555071,-1.842836064528358
1761.9739985797564,-2272.4616049521737,4114.026380544282,5190.609481456827,-7.137623708158328,-1.5164661592343462,-1.9133041201813683
1773.6427005571059,-2355.566607780266,4096.006497876278,5167.874047801464,-7.106275801155353,-1.5720767489089624,-1.9834672225376249
